%Time (s),Wheel Position (deg),Slide position (mm),Wheel Speed (deg/s),Slide Speed (mm/s)
0,20452.301,201.94,955.083,215.879
0.02,20471.721,200.324,954.25,-320.52
0.04,20490.48,190.222,962.083,-676.273
0.06,20510.18,174.039,958.25,-917.817
0.08,20529.08,153.961,1018.75,-1093.252
0.1,20550.539,130.509,996.583,-1242.428
0.12,20568.859,104.366,954.833,-1389.757
0.14,20589.24,75.468,1013.25,-1444.518
0.16,20609.52,47.171,1079.333,-1435.611
0.18,20632.641,19.635,1195.333,-1189.778
0.2,20657.02,2.249,1256,-490.215
0.22,20682.359,1.631,1238.167,476.492
0.24,20705.84,20.791,1100.917,1360.265
0.26,20726.039,53.616,895.917,1830.62
0.28,20742.24,91.667,797.417,1931.896
0.3,20758.539,129.29,802.667,1800.205
0.32,20774.461,162.527,811,1514.653
0.34,20791.16,188.448,845.083,996.331
0.36,20808.561,201.417,942.167,304.752
0.38,20828.52,201.29,973.25,-261.074
0.4,20847.221,192.122,953,-634.97
0.42,20866.859,176.747,983.667,-877.043
0.44,20886.561,157.46,1017.417,-1060.923
0.46,20907.16,134.484,967.333,-1225.934
0.48,20925.439,108.642,951.75,-1360.396
0.5,20945.74,80.424,1038.25,-1444.848
0.52,20966.779,51.479,1068.333,-1447.685
0.54,20988.699,23.942,1152,-1241.505
0.56,21012.721,4.228,1207.167,-638.533
0.58,21036.779,0.38,1245.75,298.55
0.6,21061.699,16.231,1133.5,1261.232
0.62,21081.561,48.312,913.167,1781.401
0.64,21098.92,84.985,837.5,1899.435
0.66,21115.381,122.877,802.25,1830.884
0.68,21131.26,156.89,797.417,1562.816
0.7,21147.74,184.141,879.167,1106.514
0.72,21166.42,200.024,962.333,452.278
0.74,21185.66,202.383,925.917,-172.466
0.76,21203.66,194.276,935.333,-595.714
0.78,21223.439,179.549,1023.583,-862.132
0.8,21244.18,160.326,1024.667,-1052.148
0.82,21264.16,137.698,974.917,-1212.738
0.84,21283.5,111.983,994.5,-1358.351
0.86,21304.02,83.86,1019.667,-1414.762
0.88,21324.381,55.627,1053,-1471.239
0.9,21346.48,26.396,1158.75,-1325.824
0.92,21370.461,5.368,1209.083,-708.998
0.94,21394.561,-0.016,1223.5,226.832
0.96,21418.84,14.489,1148.167,1178.694
0.98,21439.881,44.923,956,1750.062
1,21457.461,81.992,843.417,1918.833
1.02,21474.08,119.995,805.25,1844.344
1.04,21490.02,154.546,819.417,1601.743
1.06,21507.1,182.716,876.5,1150.587
1.08,21524.961,199.343,898,483.024
1.1,21543.24,202.225,974.917,-147.988
1.12,21563.619,194.687,987.583,-554.082
1.14,21582.4,180.99,926.25,-813.506
1.16,21601.221,162.448,986.583,-1050.499
1.18,21621.74,139.551,1018.167,-1180.541
1.2,21641.561,115.292,966.583,-1320.15
1.22,21660.76,87.075,993.75,-1409.616
1.24,21681.4,59.475,1021.333,-1414.894
1.26,21701.961,31.321,1113.25,-1322.855
1.28,21726.039,8.836,1233.75,-853.687
1.3,21750.699,-0.554,1252.583,-3.893
1.32,21775.221,9.358,1101.833,968.95
1.34,21794.779,36.436,969.417,1634.732
1.36,21814.24,72.206,889.333,1882.941
1.38,21830.199,109.893,754.667,1854.438
1.4,21845.141,145.109,757.75,1642.518
1.42,21860.859,174.593,806.833,1297.586
1.44,21877.66,195.606,901.5,704.973
1.46,21896.721,202.446,958.25,51.463
1.48,21915.66,198.741,953.167,-399.892
1.5,21934.881,187.324,963.833,-722.457
1.52,21954.18,170.603,973.917,-922.238
1.54,21973.561,150.73,918.5,-1083.818
1.56,21991.359,127.327,956.583,-1243.88
1.58,22011.881,101.231,999.167,-1363.827
1.6,22031.16,73.14,997.667,-1436.733
1.62,22052.16,44.559,1073.083,-1397.674
1.64,22074.16,18.764,1159.5,-1133.565
1.66,22098.34,1.663,1216.417,-462.636
1.68,22122.32,2.027,1191.5,519.509
1.7,22145.5,21.694,1089.333,1366.401
1.72,22165.48,54.329,906.333,1820.262
1.74,22182.18,92.142,807,1897.126
1.76,22198.24,128.752,784.25,1766.622
1.78,22213.9,161.767,814.25,1499.874
1.8,22231.02,187.34,879.5,998.838
1.82,22249,200.879,929.167,355.159
1.84,22267.961,201.924,935.833,-218.584
1.86,22286.42,193.199,946.667,-613
1.88,22305.779,178.362,948.667,-853.753
1.9,22324.359,159.503,946.583,-1033.279
1.92,22343.801,137.255,985.417,-1183.444
1.94,22363.4,112.331,936,-1311.705
1.96,22381.6,85.016,954.833,-1411.859
1.98,22402.119,56.403,1075.583,-1439.966
2,22424.4,28.677,1140.167,-1283.73
2.02,22447.66,7.205,1206.5,-782.101
2.04,22472.279,-0.475,1210.75,80.889
2.06,22495.6,10.894,1135.583,1027.473
2.08,22517.34,38.779,1001.25,1657.495
2.1,22535.6,74.645,860.417,1864.929
2.12,22551.98,111.729,751.25,1836.229
2.14,22566.221,146.914,736.667,1645.025
2.16,22582,176.24,818.833,1254.964
2.18,22598.961,195.922,886.833,666.838
2.2,22617.381,202.605,945.25,18.672
2.22,22636.42,197.791,931.75,-421.334
2.24,22654.82,186.707,964.667,-708.47
2.26,22674.859,169.859,966.917,-950.344
2.28,22693.381,149.178,945.75,-1110.473
2.3,22712.84,125.648,952.75,-1246.321
2.32,22731.68,99.537,991.583,-1353.469
2.34,22752.6,71.842,1053.5,-1415.818
2.36,22773.48,43.561,1032.583,-1398.466
2.38,22794.4,17.64,1117,-1109.813
2.4,22818.26,1.552,1228.583,-425.161
2.42,22842.76,2.122,1200,515.023
2.44,22865.5,21.456,1035.417,1336.381
2.46,22884.32,53.268,913.833,1767.15
2.48,22902.24,89.988,821.417,1857.473
2.5,22917.359,126.266,746.917,1775.133
2.52,22932.68,159.645,781.917,1484.831
2.54,22948.58,184.49,773,1008.669
2.56,22964.34,199.422,930.75,448.517
2.58,22985.119,202.399,942.333,-131.494
2.6,23001.619,195.273,870.25,-502.685
2.62,23020.66,182.859,964.75,-801.894
2.64,23039.801,163.746,958.667,-1020.677
2.66,23059.02,142.639,968.333,-1129.672
2.68,23078.42,118.475,950.25,-1280.102
2.7,23097.221,91.809,963.25,-1360.331
2.72,23117.34,64.336,1053.167,-1416.544
2.74,23139.199,36.008,1103.75,-1360.396
2.76,23161.5,12.034,1164.75,-959.251
2.78,23185.6,-0.111,1201.5,-180.449
2.8,23209,5.605,1140.583,722.325
2.82,23230.84,27.885,1022.167,1485.029
2.84,23249.68,62.642,858.667,1856.616
2.86,23265.721,99.774,798.917,1839.198
2.88,23281.961,135.133,790.5,1691.341
2.9,23297.34,166.407,761.417,1396.75
2.92,23312.92,189.779,829.917,901.191
2.94,23330.66,201.718,917.75,279.35
2.96,23349.34,201.338,948,-275.259
2.98,23368.439,191.837,965.583,-637.412
3,23387.641,176.794,915.333,-843.196
3.02,23405.32,158.347,919.417,-1028.33
3.04,23424.699,135.782,979.417,-1202.842
3.06,23444.26,110.542,986.917,-1326.748
3.08,23464.1,83.037,975.083,-1406.119
3.1,23483.66,54.804,1043.417,-1422.68
3.12,23505.881,27.346,1107.917,-1263.805
3.14,23528.08,6.461,1201.667,-744.89
3.16,23553.561,-0.396,1239.083,121.201
3.18,23576.699,11.638,1098.583,1047.464
3.2,23597.461,39.682,973.75,1664.158
3.22,23615.619,75.69,833.917,1866.776
3.24,23631.221,112.616,766.833,1811.751
3.26,23646.641,147.088,750.833,1613.685
3.28,23661.58,176.05,783.417,1249.554
3.3,23678.301,195.875,877,684.718
3.32,23696.48,203.016,935,40.84
3.34,23715.359,198.488,928.917,-423.248
3.36,23733.66,187.15,933.333,-709.987
3.38,23752.801,170.524,958.25,-952.786
3.4,23772,149.701,985.417,-1074.449
3.42,23792.1,127.564,991,-1208.384
3.44,23811.561,101.342,981.583,-1362.31
3.46,23831.439,73.663,979.333,-1414.102
3.48,23851.141,45.446,1055.833,-1384.478
3.5,23873.699,19.778,1132.583,-1128.155
3.52,23896.24,2.534,1177.75,-507.567
3.54,23920.42,1.124,1165.417,397.978
3.56,23942.24,18.036,1040.5,1232.531
3.58,23962,48.28,923.417,1702.623
3.6,23979.16,83.971,790.333,1828.641
3.62,23994.16,119.979,760.667,1743.002
3.64,24009.84,152.757,761.25,1533.588
3.66,24024.881,180.246,800,1165.498
3.68,24042.221,198.044,914.667,566.749
3.7,24061.199,202.557,972.667,-104.377
3.72,24080.881,195.226,991.333,-521.423
3.74,24100.721,182.748,997.417,-767.19
3.76,24120.461,164.712,932.25,-1016.784
3.78,24138.461,142.575,963.833,-1177.968
3.8,24159.061,117.873,998.833,-1303.722
3.82,24178.199,90.749,980.583,-1378.079
3.84,24198.66,62.99,1038.083,-1436.931
3.86,24219.92,34.25,1126.25,-1361.65
3.88,24243.68,10.752,1217.667,-920.654
3.9,24268.061,-0.364,1206.833,-114.669
3.92,24291.539,7.031,1135.833,845.572
3.94,24313.16,32.002,1012,1554.767
3.96,24331.881,66.743,857.833,1861.762
3.98,24347.9,104.192,777.917,1789.582
4,24363.58,137.73,802.833,1679.927
4.02,24380.061,170.397,815.583,1438.382
4.04,24396.48,193.199,879,821.16
4.06,24415.359,202.731,976.417,132.154
4.08,24435.02,199.327,966.917,-406.819
4.1,24454.039,187.704,968,-736.378
4.12,24473.859,170.619,996.167,-957.206
4.14,24493.76,149.796,995.417,-1128.023
4.16,24513.699,125.791,1001.083,-1248.894
4.18,24533.859,99.806,1019.083,-1394.837
4.2,24554.4,70.433,1015.833,-1479.025
4.22,24574.779,41.693,1062.75,-1406.713
4.24,24597.26,15.851,1179.25,-1085.995
4.26,24621.68,0.76,1249.917,-339.588
4.28,24646.58,3.61,1207.5,637.478
4.3,24669.359,25.272,1061.583,1444.254
4.32,24688.9,58.952,890.5,1842.826
4.34,24705.461,96.877,806.75,1916.655
4.36,24721.66,134.167,812.25,1785.096
